Time,Pressurant Tank PRESSURE (kg/ms^2),Tank DISTANCE (m),INTER2 MASS FLOW RATE (kg/s),Tank MASS (kg)
0.0,6550022.0,0.30039865743522975,0.44465009461039157,1.8
0.05,6434985.801069715,0.297726937181662,0.44070010448623104,1.7777674952694804
0.1,6322982.325618583,0.2953759536739336,0.43682088948755093,1.755732490045169
0.15000000000000002,6213905.512121197,0.29326747252581,0.4330105403029436,1.7338914455707914
0.2,6107653.902908896,0.291350016117818,0.429267221160075,1.7122409185556442
0.25,6004130.405084522,0.28916854610422693,0.4255890481870062,1.6907775574976405
0.3,5903242.093456688,0.2857389460665188,0.42197404792821214,1.6694981050882902
0.35,5804900.032924918,0.28233847742934043,0.4184209341896994,1.6483994026918796
0.39999999999999997,5709018.933939347,0.2789666414815218,0.41492812339713697,1.6274783559823947
0.44999999999999996,5615517.051871842,0.27562295227309147,0.4114940855631556,1.6067319498125379
0.49999999999999994,5524316.0117507,0.2723069361834481,0.4081173420433599,1.58615724553438
0.5499999999999999,5435340.643009817,0.26901813150761383,0.4047964634038844,1.565751378432212
0.6,5348518.82360464,0.2657560880596723,0.4015300673941113,1.5455115552620178
0.65,5263781.3328939965,0.2625203667925435,0.39831681701854665,1.5254350518923123
0.7000000000000001,5181061.712729763,0.25931053943329635,0.39515541870227294,1.505519211041385
0.7500000000000001,5100296.136235955,0.256126188133245,0.392044620544716,1.4857614401062715
0.8000000000000002,5021423.283795311,0.252966905132117,0.3889832106568493,1.4661592090790356
0.8500000000000002,4944384.225795078,0.2498322924356211,0.38597001557719207,1.4467100485461932
0.9000000000000002,4869122.311714831,0.2467219615057798,0.38300389876232765,1.4274115477673337
0.9500000000000003,4795583.065167799,0.24363553296342577,0.38008375914786924,1.4082613528292174
1.0000000000000002,4723714.084533749,0.24057263630229503,0.3772085297760836,1.389257164871824
1.0500000000000003,4653464.948845999,0.23753290961417906,0.374377176486611,1.3703967383830198
1.1000000000000003,4584787.128617816,0.23451599932462813,0.37158869666691974,1.3516778795586892
1.1500000000000004,4517633.901314507,0.2315215599387236,0.36884211805936173,1.3330984447253433
1.2000000000000004,4451960.271196959,0.22854925379646374,0.3661364976218474,1.3146563388223753
1.2500000000000004,4387722.89328045,0.225598750837331,0.3634709204393729,1.2963495139412828
1.3000000000000005,4324880.001169305,0.22266972837363036,0.3608444986837734,1.278175967919314
1.3500000000000005,4263391.338543486,0.21976187087221066,0.35825637061921717,1.2601337429851254
1.4000000000000006,4203218.094087633,0.21687486974419995,0.35570569965114346,1.2422209244541644
1.4500000000000006,4144322.8396665333,0.21400842314240548,0.35319167341642466,1.2244356394716072
1.5000000000000007,4086669.471563355,0.21116223576604487,0.3507135029126999,1.2067760558007858
1.5500000000000007,4030223.1546086613,0.20833601867249396,0.3482704216649352,1.1892403806551508
1.6000000000000008,3974950.26903894,0.20552948909575108,0.345861684927354,1.1718268595719041
1.6500000000000008,3920818.3599334597,0.2027423702713318,0.3434865689190189,1.1545337753255365
1.7000000000000008,3867796.089087571,0.19997439126732486,0.34114437009141063,1.1373594468795856
1.7500000000000009,3815853.189189329,0.19722528682134927,0.3388344044264651,1.120302228375015
1.800000000000001,3764960.4201743933,0.19449479718316848,0.3365560067635997,1.1033605081536917
1.850000000000001,3715089.5276417583,0.19178266796272814,0.3343085301543428,1.0865327078155116
1.900000000000001,3666213.203219935,0.18908864998339397,0.33209134524325534,1.0698172813077944
1.950000000000001,3618305.046779793,0.18641249914017866,0.329903839673916,1.0532127140456315
2.000000000000001,3571339.530396463,0.1837539762627559,0.3277454175187796,1.0367175220619358
2.0500000000000007,3525291.9639684153,0.1811128469830683,0.32561549873180945,1.0203302511859969
2.1000000000000005,3480138.4624072816,0.17848888160734677,0.3235135186228349,1.0040494762494063
2.1500000000000004,3435855.9143169518,0.1758818549923657,0.3214389273526196,0.9878738003182645
2.2,3392421.952085258,0.17329154642576688,0.3193911894477142,0.9718018539506336
2.25,3349814.923315927,0.1707177395102933,0.3173697833341851,0.9558322944782478
2.3,3308013.863532634,0.16816022205177988,0.3153742008893757,0.9399638053115386
2.3499999999999996,3266998.470090865,0.16561878595075707,0.3134039470108823,0.9241950952670698
2.3999999999999995,3226749.077236912,0.1630932270975271,0.31145853920199823,0.9085248979165257
2.4499999999999993,3187246.632256751,0.16058334527058132,0.30953750717287487,0.8929519709564258
2.499999999999999,3148472.6726607177,0.15808894403823165,0.30764039245672886,0.877475095597782
2.549999999999999,3110409.3043529214,0.1556098306633345,0.3057667480404257,0.8620930759749456
2.5999999999999988,3073039.1807371294,0.1531458160109918,0.30391613800882306,0.8468047385729243
2.6499999999999986,3036345.482713514,0.15069671445911823,0.30208813720228056,0.8316089316724831
2.6999999999999984,3000311.899523112,0.14826234381176806,0.30028233088675815,0.816504524812369
2.7499999999999982,2964922.610399221,0.1458425252151208,0.2984983144359943,0.8014904082680311
2.799999999999998,2930162.266987105,0.14343708307602776,0.29673569302522257,0.7865654925462313
2.849999999999998,2896015.9764954806,0.14104584498302705,0.2949940813359583,0.7717287078949702
2.8999999999999977,2862469.285545182,0.13866864162973744,0.29327310327138717,0.7569790038281723
2.9499999999999975,2829508.164682234,0.13630530674054547,0.2915723916819158,0.7423153486646029
2.9999999999999973,2797118.9935242864,0.1339556769985048,0.28989158810046456,0.7277367290805071
3.049999999999997,2765288.5465109753,0.13161959197536816,0.28823034248709445,0.7132421496754839
3.099999999999997,2734003.9792303345,0.1292968940636775,0.28658831298260096,0.6988306325511292
3.149999999999997,2703252.815294767,0.1269874284108396,0.2849651656706948,0.6845012169019992
3.1999999999999966,2673022.933741508,0.12469104285511849,0.28336057434843237,0.6702529586184645
3.2499999999999964,2643302.55693375,0.1224075878634774,0.281774220304566,0.6560849299010428
3.2999999999999963,2614080.238939814,0.1201369164712072,0.28020579210548147,0.6419962188858145
3.349999999999996,2585344.8543689195,0.11787888422327976,0.2786549853884463,0.6279859292805404
3.399999999999996,2557085.587643151,0.11563334911736729,0.27712150266185653,0.6140531800111181
3.4499999999999957,2529291.9226862495,0.11340017154847168,0.2756050531122234,0.6001971048780252
3.4999999999999956,2501953.6330108345,0.1111792142551089,0.2741053524176246,0.586416852222414
3.5499999999999954,2475060.7721865475,0.10897034226699695,0.2726221225673763,0.5727115846015328
3.599999999999995,2448603.664672474,0.10677342285419683,0.2711550916876883,0.559080478473164
3.649999999999995,2422572.8969980273,0.1045883254776585,0.2697039938730585,0.5455227238887795
3.699999999999995,2396959.3092772383,0.10241492174112567,0.26826856902320323,0.5320375241951266
3.7499999999999947,2371753.987042106,0.10025308534435443,0.2668485626853054,0.5186240957439665
3.7999999999999945,2346948.253381387,0.09810269203760336,0.2654437259013722,0.5052816676097013
3.8499999999999943,2322533.6613718257,0.09596361957735355,0.2640538150605305,0.4920094813146327
3.899999999999994,2298501.9867894566,0.09383574768321903,0.26267859175605174,0.47880679056160613
3.949999999999994,2274845.2210891997,0.09171895799600924,0.2613178226469453,0.46567286097380356
3.999999999999994,2251555.564641508,0.08961313403690682,0.25997127932394737,0.4526069698414563
4.049999999999994,2228625.4202153753,0.08751816116772557,0.2586387381797394,0.43960840587525896
4.099999999999993,2206047.386697493,0.08543392655221387,0.25731998028325104,0.426676468966272
4.149999999999993,2183814.253037823,0.08336031911837141,0.2560147912578828,0.4138104699521094
4.199999999999993,2161918.9924123087,0.08129722952174702,0.25472296116352716,0.4010097303892153
4.249999999999993,2140354.756593859,0.07924455010968726,0.25344428438222943,0.3882735823310389
4.299999999999993,2119114.8705231613,0.0772021748865065,0.25217855950737267,0.37560136811192746
4.3499999999999925,2098192.8270712513,0.07516999947954996,0.25092558923625574,0.36299244013655885
4.399999999999992,2077582.2819861292,0.07314792110612227,0.2496851802659457,0.35044616067474604
4.449999999999992,2057277.0490160764,0.07113583854125563,0.24845714319228077,0.33796190166144874
4.499999999999992,2037271.095202633,0.06913365208629146,0.24724129241192785,0.3255390445018347
4.549999999999992,2017558.5363365281,0.0671412635382516,0.2460374460273759,0.31317697988123827
4.599999999999992,1998133.6325701415,0.06515857615997503,0.24484542575476248,0.30087510757986946
4.6499999999999915,1978990.7841803648,0.06318549465099729,0.24366505683444703,0.2886328362921313
4.699999999999991,1960124.52747599,0.06122192511915073,0.24249616794421983,0.276449583450409
4.749999999999991,1941529.5308440241,0.0592677750528639,0.24133859111507316,0.264324775053198
4.799999999999991,1923200.5909295576,0.057322953294139965,0.24019216164942833,0.25225784549744434
4.849999999999991,1905132.6289440545,0.05538737001219393,0.23905671804175588,0.24024823741497292
4.899999999999991,1887320.6870971574,0.05346093667772958,0.23793210190149072,0.22829540151288513
4.94999999999999,1869759.9251472927,0.05154356603783759,0.2368181578781737,0.2163987964178106
4.99999999999999,1852445.617066583,0.049816916472438195,0.23571482348245915,0.20455788852390192
5.04999999999999,1835373.1413412648,0.04884118511407321,0.23462222846040826,0.19277214734977896
5.09999999999999,1818537.9646419303,0.04782963944418259,0.2335398368631793,0.18104103592675855
5.14999999999999,1801935.686980672,0.04677837920178738,0.23246750269544236,0.1693640440835996
5.1999999999999895,1785562.0103720056,0.04568279398861764,0.23140508227272935,0.15774066894882746
5.249999999999989,1769412.7360308007,0.04453737244323348,0.23035243405537187,0.146170414835191
5.299999999999989,1753483.7616670334,0.04333544100369019,0.22930941844622413,0.1346527931324224
5.349999999999989,1737771.0788762213,0.042068797987808854,0.2282758975336395,0.1231873222101112
5.399999999999989,1722270.7706256232,0.0407271872363169,0.2272517347496203,0.11177352733342921
5.449999999999989,1706979.008838183,0.039297516967369835,0.22623679439227753,0.1004109405959482
5.4999999999999885,1691892.0520793188,0.037762656562072956,0.22523094092250479,0.08909910087633433
5.549999999999988,1677006.2433571084,0.03609949761803171,0.22423403786600682,0.07783755383020909
5.599999999999988,1662318.008056566,0.03427564926452558,0.2232459459817025,0.06662585193690874
5.649999999999988,1647823.8520490092,0.032243387674559275,0.22226651995419788,0.05546355463782362
5.699999999999988,1633520.360062035,0.029927473348892782,0.22129560178954186,0.044350228640113724
5.749999999999988,1619404.1945050042,0.02719711909119907,0.2203330056914903,0.03328544855063663
5.799999999999987,1605472.095259729,0.023786855008299787,0.2193784754774144,0.022268798266062116
5.849999999999987,1591720.882091667,0.01897270722285623,0.21843151057727503,0.011299874492191397
