Time,INTER4 MASS FLOW RATE (kg/s),INTER5 MASS FLOW RATE (kg/s)
0.0,0.30780689740476264,0.0026488453959859566
0.01,0.25511190083086294,0.0031240275807611993
0.02,0.2077676311151287,0.0035382575538168127
0.03,0.16685869518436647,0.003887261683546566
0.04,0.1322186101377145,0.004173688921799075
0.05,0.10335213112098575,0.004403378922995534
0.060000000000000005,0.08030497821249226,0.0045835418716086
0.07,0.07072124284333312,0.00472292495272417
0.08,0.06221855364427152,0.004845485435930571
0.09,0.05470873496862563,0.004952823468026014
0.09999999999999999,0.0481032559535021,0.005046497233382535
0.10999999999999999,0.042315176029029115,0.005127990718509803
0.11999999999999998,0.037260734666578706,0.005198692511757294
0.12999999999999998,0.032860564379067564,0.005259883383689188
0.13999999999999999,0.030666036008054887,0.005312730666661806
0.15,0.029488428535516743,0.0053614154594532
0.16,0.028375931154592523,0.0054078706122210095
0.17,0.027317021874045784,0.005452206764826051
0.18000000000000002,0.02630911681732999,0.0054945144444732315
0.19000000000000003,0.025349756187349488,0.005534881007864298
0.20000000000000004,0.02443659842004587,0.00557339066471607
0.21000000000000005,0.023567414599164255,0.005610124514819612
0.22000000000000006,0.0227400831191212,0.0056451605962558205
0.23000000000000007,0.02195258458770414,0.005678573942696053
0.24000000000000007,0.021202996956920357,0.005710436648038855
0.25000000000000006,0.02048949088089221,0.005740817936763241
0.26000000000000006,0.019810325281562714,0.005769784238819112
0.2700000000000001,0.019163843121984738,0.005797399267825235
0.2800000000000001,0.018548467375356162,0.005823724101665236
0.2900000000000001,0.017962697182233582,0.0058488172646527226
0.3000000000000001,0.017405104187929805,0.005872734810577751
0.3100000000000001,0.01687432905235703,0.005895530406041198
0.3200000000000001,0.016369078124770273,0.00591725541358791
0.3300000000000001,0.015888120276138833,0.005937958974223285
0.34000000000000014,0.01543028388210149,0.005957688088965017
0.35000000000000014,0.014994453949714423,0.005976487699148868
0.36000000000000015,0.014579569381461668,0.005994400765253385
0.37000000000000016,0.014184620370224381,0.006011468344053794
0.38000000000000017,0.013808645919185458,0.006027729663957343
0.3900000000000002,0.013450731480853495,0.006043222198400099
0.4000000000000002,0.013110006709657172,0.006057981737222861
0.4100000000000002,0.012785643322785308,0.006072042455952805
0.4200000000000002,0.012476853064165174,0.006085436982958348
0.4300000000000002,0.012257359734517793,0.006098196464445341
0.4400000000000002,0.012151388661416998,0.0061104994581120155
0.45000000000000023,0.01204746622021887,0.006122573056112451
0.46000000000000024,0.011945551904888817,0.006134421402999715
0.47000000000000025,0.011845606039884906,0.006146048573160452
0.48000000000000026,0.011747589758999083,0.006157458571768137
0.49000000000000027,0.011651464987963876,0.006168655335734201
0.5000000000000002,0.011557194427518012,0.00617964273465515
0.5100000000000002,0.011464741536827024,0.006190424571760376
0.5200000000000002,0.011374070517303537,0.00620100458485497
0.5300000000000002,0.011285146296797537,0.00621138644726207
0.5400000000000003,0.011197934514159099,0.006221573768759013
0.5500000000000003,0.011112401504107876,0.006231570096511873
0.5600000000000003,0.011028514282525374,0.006241378916001224
0.5700000000000003,0.010946240531992063,0.00625100365194674
0.5800000000000003,0.010865548587744394,0.006260447669222472
0.5900000000000003,0.010786407423856921,0.0062697142737667185
0.6000000000000003,0.01070878663981134,0.006278806713486666
0.6100000000000003,0.010632656447346487,0.006287728179152633
0.6200000000000003,0.010557987657564414,0.006296481805287216
0.6300000000000003,0.010484751668394333,0.0063050706710465745
0.6400000000000003,0.010412920452260528,0.006313497801092327
0.6500000000000004,0.010342466544099817,0.006321766166455767
0.6600000000000004,0.010273363029602786,0.006329878685392637
0.6700000000000004,0.010205616683224401,0.006337838224227342
0.6800000000000004,0.010139471369399092,0.006345647665159847
0.6900000000000004,0.01007459087173812,0.006353310384968713
0.7000000000000004,0.010010950562585151,0.00636082908226603
0.7100000000000004,0.009948526305473392,0.006368206407407258
0.7200000000000004,0.009887294444821499,0.006375444963287551
0.7300000000000004,0.009827231796012484,0.006382547306125872
0.7400000000000004,0.009768315635664463,0.006389515946237499
0.7500000000000004,0.009710523692126634,0.006396353348798452
0.7600000000000005,0.009653834136180381,0.006403061934599044
0.7700000000000005,0.009598225571945299,0.006409644080788904
0.7800000000000005,0.009543677027964909,0.006416102121610153
0.7900000000000005,0.00949016794852457,0.006422438349124011
0.8000000000000005,0.009437678185102482,0.006428655013923965
0.8100000000000005,0.009386187988062962,0.006434754325841662
0.8200000000000005,0.009335677998478766,0.006440738454642265
0.8300000000000005,0.009286129240161794,0.006446609530709999
0.8400000000000005,0.009237523111851255,0.006452369645723605
0.8500000000000005,0.009189841379575304,0.006458020853322961
0.8600000000000005,0.009143066169166887,0.006463565169765253
0.8700000000000006,0.009097179958950784,0.006469004574572008
0.8800000000000006,0.009052165572577953,0.006474341011166083
0.8900000000000006,0.009008006172015533,0.00647957638749982
0.9000000000000006,0.008964685250689807,0.00648471257667312
0.9100000000000006,0.008922186626765347,0.006489751417542993
0.9200000000000006,0.008880494436579317,0.0064946947153220165
0.9300000000000006,0.008839593128198348,0.006499544242170293
0.9400000000000006,0.00879946745512727,0.0065043017377757325
0.9500000000000006,0.008760102470144367,0.006508968909927061
0.9600000000000006,0.008721483519259304,0.00651354743507613
0.9700000000000006,0.008683596235813195,0.006518038958893104
0.9800000000000006,0.008646426534688757,0.006522445096811938
0.9900000000000007,0.008609960606649055,0.006526767434566809
1.0000000000000007,0.008574184912793237,0.0065310075287208225
1.0100000000000007,0.008539086179127743,0.006535166907185861
1.0200000000000007,0.00850465139125121,0.006539247069732499
1.0300000000000007,0.008470867789151746,0.006543249488495244
1.0400000000000007,0.008437722862109654,0.006547175608464934
1.0500000000000007,0.008405204343708608,0.0065510268479770095
1.0600000000000007,0.0083733002069459,0.006554804599188796
1.0700000000000007,0.008341998659456569,0.006558510228551242
1.0800000000000007,0.008311288138818863,0.006562145077270333
1.0900000000000007,0.008281157307968452,0.006565710461763363
1.1000000000000008,0.008251595050708313,0.006569207674105352
1.1100000000000008,0.008222590467303566,0.006572637982469692
1.1200000000000008,0.008194132870172729,0.00657600263155951
1.1300000000000008,0.008166211779668085,0.006579302843033695
1.1400000000000008,0.008138816919939547,0.00658253981592408
1.1500000000000008,0.008111938214885404,0.006585714727046447
1.1600000000000008,0.008085565784186243,0.006588828731404227
1.1700000000000008,0.008059689939420387,0.006591882962584944
1.1800000000000008,0.008034301180258994,0.006594878533149689
1.1900000000000008,0.008009390190736829,0.006597816535017984
1.2000000000000008,0.00798494783560322,0.006600698039842058
1.2100000000000009,0.007960965156744165,0.006603524099378654
1.2200000000000009,0.007937433369678832,0.006606295745851405
1.2300000000000009,0.007914343860127238,0.006609013992308518
1.2400000000000009,0.007891688180649125,0.0066116798329739586
1.2500000000000009,0.007869458047347243,0.006614294243591684
1.260000000000001,0.00784764533664355,0.006616858181765189
1.270000000000001,0.007826242082115475,0.006619372587289161
1.280000000000001,0.007805240471399199,0.006621838382477803
1.290000000000001,0.007784632843155376,0.006624256472484795
1.300000000000001,0.007764411684095547,0.0066266277456196905
1.310000000000001,0.007744569626069394,0.0066289530736568635
1.320000000000001,0.007725099443210197,0.0066312333121408456
1.330000000000001,0.007705994049139411,0.006633469300684652
1.340000000000001,0.0076872464942244895,0.0066356618632636005
1.350000000000001,0.007668849962896309,0.006637811808503681
1.360000000000001,0.00765079777101743,0.006639919929964806
1.370000000000001,0.007633083363303582,0.0066419870064191484
1.380000000000001,0.0076157003107990935,0.006644013802123735
1.390000000000001,0.0075986423084003505,0.006646001067090011
1.400000000000001,0.00758190317243091,0.006647949537345111
1.410000000000001,0.0075654768382647,0.006649859935193091
1.420000000000001,0.00754935735799659,0.0066517329694669594
1.430000000000001,0.0075335388981596025,0.006653569335778733
1.440000000000001,0.007518015737488419,0.006655369716765455
1.450000000000001,0.007502782264727011,0.0066571347823278755
1.460000000000001,0.007487832976480124,0.006658865189868055
1.470000000000001,0.007473162475108203,0.006660561584520073
1.480000000000001,0.00745876546666369,0.006662224599379094
1.490000000000001,0.007444636758868824,0.006663854855723337
1.500000000000001,0.007430771259133681,0.006665452963234202
1.5100000000000011,0.007417163972613679,0.006667019520212332
1.5200000000000011,0.007403810000305817,0.006668555113788432
1.5300000000000011,0.007390704537182597,0.006670060320130537
1.5400000000000011,0.007377842870362979,0.006671535704648963
1.5500000000000012,0.007365220377320172,0.006672981822195414
1.5600000000000012,0.007352832524124626,0.006674399217260009
1.5700000000000012,0.007340674863721231,0.006675788424164534
1.5800000000000012,0.007328743034242387,0.006677149967250695
1.5900000000000012,0.007317032757352948,0.006678484361066808
1.6000000000000012,0.007305539836627985,0.00667979211054971
1.6100000000000012,0.007294260155964287,0.006681073711204629
1.6200000000000012,0.007283189678020688,0.0066823296492807644
1.6300000000000012,0.007272324442691937,0.006683560401942528
1.6400000000000012,0.007261660565610524,0.00668476643744106
1.6500000000000012,0.007251194236679541,0.006685948215279086
1.6600000000000013,0.00724092171863327,0.006687106186374548
1.6700000000000013,0.0072308393456280975,0.006688240793220364
1.6800000000000013,0.007220943521858211,0.006689352470042863
1.6900000000000013,0.0072112307202018815,0.006690441642954464
1.7000000000000013,0.007201697480891849,0.0066915087301065695
1.7100000000000013,0.007192340410213194,0.006692554141837441
1.7200000000000013,0.007183156179226316,0.006693578280818188
1.7300000000000013,0.0071741415225151164,0.006694581542196633
1.7400000000000013,0.007165293236960553,0.00669556431373655
1.7500000000000013,0.007156608180536189,0.006696526975957576
1.7600000000000013,0.007148083271130029,0.0066974699022685335
1.7700000000000014,0.007139715485387651,0.006698393459101924
1.7800000000000014,0.007131501857578676,0.006699298006043476
1.7900000000000014,0.007123439478485219,0.006700183895960412
1.8000000000000014,0.007115525494312271,0.0067010514751273936
1.8100000000000014,0.007107757105619817,0.0067019010833491675
1.8200000000000014,0.007100131566274998,0.006702733054081969
1.8300000000000014,0.007092646182425276,0.006703547714552564
1.8400000000000014,0.0070852983114917945,0.006704345385873387
1.8500000000000014,0.0070780853611819945,0.006705126383159624
1.8600000000000014,0.007071004788522247,0.006705891015638485
1.8700000000000014,0.007064054098908732,0.006706639586761347
1.8800000000000014,0.0070572308451766355,0.006707372394310566
1.8900000000000015,0.00705053262668844,0.006708089730506767
1.9000000000000015,0.0070439570884389515,0.006708791882112427
1.9100000000000015,0.007037501920179329,0.006709479130533292
1.9200000000000015,0.007031164855555713,0.0067101517519201565
1.9300000000000015,0.007024943671267182,0.006710810017265861
1.9400000000000015,0.007018836186238447,0.006711454192502471
1.9500000000000015,0.00701284026080955,0.006712084538596426
1.9600000000000015,0.007006953795940786,0.006712701311640354
1.9700000000000015,0.0070011747324334765,0.006713304762945841
1.9800000000000015,0.00699550105016568,0.006713895139131242
1.9900000000000015,0.006989930767342539,0.006714472682211268
2.0000000000000013,0.006984461939761896,0.00671503762968199
2.010000000000001,0.006979092660093426,0.006715590214606273
2.020000000000001,0.006973821057172169,0.006716130665695371
2.0300000000000007,0.0069686452953055126,0.006716659207393055
2.0400000000000005,0.0069635635738593705,0.006717176059952078
2.0500000000000003,0.0069585741255136155,0.006717681439517169
2.06,0.006953675217252725,0.006718175558196297
2.07,0.006948865148611488,0.006718658624140876
2.0799999999999996,0.006944142251328644,0.006719130841618083
2.0899999999999994,0.0069395048887319205,0.006719592411083649
2.099999999999999,0.006934951455133026,0.0067200435292535995
2.109999999999999,0.006930480375236405,0.0067204843891742975
2.1199999999999988,0.0069260901035574935,0.006720915180290264
2.1299999999999986,0.006921779123853196,0.006721336088513078
2.1399999999999983,0.006917545948563488,0.006721747296286601
2.149999999999998,0.00691338911826277,0.006722148982652002
2.159999999999998,0.006909307201123214,0.006722541323311741
2.1699999999999977,0.006905298792387024,0.006722924490691944
2.1799999999999975,0.006901362513851287,0.006723298654004051
2.1899999999999973,0.006897497013358307,0.006723663979303986
2.199999999999997,0.006893700964302905,0.006724020629553148
2.209999999999997,0.006889973065140399,0.006724368764674081
2.2199999999999966,0.006886312038912804,0.006724708541609422
2.2299999999999964,0.006882716632775716,0.006725040114376575
2.239999999999996,0.006879185617542617,0.006725363634122288
2.249999999999996,0.0068757177872310225,0.006725679249177215
2.259999999999996,0.006872311958623236,0.00672598710510868
2.2699999999999956,0.006868966970828794,0.006726287344770786
2.2799999999999954,0.006865681684863006,0.006726580108357682
2.289999999999995,0.006862454983227311,0.006726865533451549
2.299999999999995,0.006859285769500886,0.006727143755071769
2.3099999999999947,0.006856172967940317,0.006727414905723801
2.3199999999999945,0.006853115523084115,0.00672767911544486
2.3299999999999943,0.006850112399369296,0.006727936511851789
2.339999999999994,0.006847162580750165,0.00672818722018449
2.349999999999994,0.00684426507033,0.006728431363351702
2.3599999999999937,0.0068414188899936735,0.006728669061975015
2.3699999999999934,0.0068386230800538475,0.006728900434429437
2.3799999999999932,0.006835876698897493,0.006729125596887886
2.389999999999993,0.006833178822645051,0.006729344663361724
2.399999999999993,0.006830528544812358,0.006729557745740111
2.4099999999999926,0.006827924975980173,0.0067297649538309145
2.4199999999999924,0.006825367243469466,0.006729966395399358
2.429999999999992,0.006822854491025725,0.006730162176205467
2.439999999999992,0.006820385878503919,0.006730352400042965
2.4499999999999917,0.006817960581565362,0.006730537168774881
2.4599999999999915,0.0068155777913764,0.006730716582370031
2.4699999999999913,0.006813236714315531,0.006730890738938876
2.479999999999991,0.0068109365716818564,0.0067310597347672915
2.489999999999991,0.006808676599415304,0.006731223664351797
2.4999999999999907,0.006806456047818435,0.006731382620432305
2.5099999999999905,0.006804274181281532,0.006731536694024888
2.5199999999999902,0.006802130278019234,0.006731685974454571
2.52999999999999,0.006800023629805326,0.006731830549386344
2.53999999999999,0.00679795354171821,0.006731970504856803
2.5499999999999896,0.006795919331886705,0.006732105925303848
2.5599999999999894,0.0067939203312449275,0.006732236893597274
2.569999999999989,0.0067919558832879095,0.006732363491067734
2.579999999999989,0.006790025343834973,0.006732485797535224
2.5899999999999888,0.006788128080796199,0.006732603891337688
2.5999999999999885,0.00678626347394246,0.006732717849358786
2.6099999999999883,0.006784430914683539,0.006732827747054765
2.619999999999988,0.006782629805843695,0.006732933658481517
2.629999999999988,0.006780859561450852,0.006733035656319715
2.6399999999999877,0.00677911960652023,0.006733133811901936
2.6499999999999875,0.00677740937684905,0.006733228195236708
2.6599999999999873,0.0067757283188116125,0.006733318875034244
2.669999999999987,0.006774075889159761,0.006733405918729099
2.679999999999987,0.006772451554827513,0.006733489392505762
2.6899999999999866,0.006770854792736085,0.006733569361321028
2.6999999999999864,0.006769285089608183,0.006733645888926794
2.709999999999986,0.006767741941780768,0.006733719037893086
2.719999999999986,0.006766224855024499,0.006733788869629889
2.7299999999999858,0.006764733344365074,0.006733855444408238
2.7399999999999856,0.006763266933908324,0.006733918821382985
2.7499999999999853,0.006761825156670178,0.006733979058611552
2.759999999999985,0.006760407554405886,0.006734036213075946
2.769999999999985,0.00675901367744786,0.0067340903407025485
2.7799999999999847,0.00675764308454142,0.006734141496380962
2.7899999999999845,0.006756295342688378,0.006734189733984342
2.7999999999999843,0.006754970026989483,0.006734235106388202
2.809999999999984,0.006753666720491494,0.006734277665488702
2.819999999999984,0.006752385014039435,0.006734317462220066
2.8299999999999836,0.0067511245061278825,0.006734354546574686
2.8399999999999834,0.0067498848027569905,0.006734388967618639
2.849999999999983,0.006748665517290921,0.006734420773510259
2.859999999999983,0.006747466270320077,0.006734450011515774
2.869999999999983,0.006746286689524082,0.006734476728027281
2.8799999999999826,0.00674512640953701,0.006734500968578308
2.8899999999999824,0.006743985071819365,0.0067345227778596
2.899999999999982,0.006742862324527649,0.006734542199735548
2.909999999999982,0.0067417578223880155,0.0067345592772586355
2.9199999999999817,0.006740671226573045,0.006734574052685599
2.9299999999999815,0.006739602204580911,0.006734586567491272
2.9399999999999813,0.006738550430116106,0.006734596862383841
2.949999999999981,0.0067375155829715325,0.006734604977319013
2.959999999999981,0.006736497348915919,0.006734610951513351
2.9699999999999807,0.006735495419579824,0.006734614823458756
2.9799999999999804,0.006734509492345731,0.006734616630935937
2.9899999999999802,0.006733539270240221,0.006734616411027534
2.99999999999998,0.006732584461828026,0.006734614200130512
3.00999999999998,0.006731644781107426,0.006734610033969644
3.0199999999999796,0.0067307199474085,0.006734603947609801
3.0299999999999794,0.006729809685292138,0.0067345959754682196
3.039999999999979,0.006728913724452978,0.006734586151326637
3.049999999999979,0.006728031799621605,0.006734574508342712
3.0599999999999787,0.0067271636504715685,0.006734561079062058
3.0699999999999785,0.006726309021525263,0.00673454589542954
3.0799999999999783,0.006725467662063373,0.006734528988800098
3.089999999999978,0.006724639326035076,0.006734510389950375
3.099999999999978,0.006723823771971365,0.006734490129088848
3.1099999999999777,0.006723020762897635,0.0067344682358663355
3.1199999999999775,0.006722230066250848,0.006734444739386984
3.1299999999999772,0.006721451453796127,0.00673441966821801
3.139999999999977,0.006720684701545207,0.006734393050399663
3.149999999999977,0.006719929589677197,0.006734364913454824
3.1599999999999766,0.0067191859024601595,0.006734335284399469
3.1699999999999764,0.006718453428174812,0.006734304189750638
3.179999999999976,0.006717731959038685,0.006734271655537359
3.189999999999976,0.0067170212911334655,0.0067342377073079576
3.1999999999999758,0.006716321224331179,0.006734202370140805
3.2099999999999755,0.006715631562223762,0.00673416566865146
3.2199999999999753,0.006714952112053895,0.006734127627002353
3.229999999999975,0.0067142826846456356,0.006734088268910094
3.239999999999975,0.006713623094338025,0.006734047617655095
3.2499999999999747,0.006712973158919313,0.006734005696088805
3.2599999999999745,0.006712332699561536,0.006733962526641521
3.2699999999999743,0.006711701540758358,0.006733918131330595
3.279999999999974,0.006711079510261547,0.006733872531768413
3.289999999999974,0.006710466439021328,0.00673382574916884
3.2999999999999736,0.006709862161125815,0.00673377780435526
